# Created by Octave 7.1.0, Tue Jan 21 16:49:19 2025 CET <antonybazir@antonybazir-Latitude-E7450>
# name: b
# type: matrix
# rows: 575
# columns: 2
 0.10000000000000001 1.3999999999999999
 0.11 1.3999999999999999
 0.12 1.3999999999999999
 0.13 1.375
 0.14000000000000001 1.375
 0.14999999999999999 1.375
 0.16 1.375
 0.17000000000000001 1.375
 0.17999999999999999 1.375
 0.19 1.375
 0.20000000000000001 1.3500000000000001
 0.20999999999999999 1.325
 0.22 1.325
 0.23000000000000001 1.325
 0.23999999999999999 1.325
 0.25 1.325
 0.26000000000000001 1.325
 0.27000000000000002 1.325
 0.28000000000000003 1.375
 0.28999999999999998 1.375
 0.29999999999999999 1.425
 0.31 1.45
 0.32000000000000001 1.4750000000000001
 0.33000000000000002 1.4750000000000001
 0.34000000000000002 1.45
 0.34999999999999998 1.375
 0.35999999999999999 1.325
 0.37 1.2749999999999999
 0.38 1.2749999999999999
 0.39000000000000001 1.2749999999999999
 0.40000000000000002 1.25
 0.40999999999999998 1.2250000000000001
 0.41999999999999998 1.575
 0.42999999999999999 2.1499999999999999
 0.44 3.125
 0.45000000000000001 3.3250000000000002
 0.46000000000000002 2.7000000000000002
 0.46999999999999997 1.8500000000000001
 0.47999999999999998 1.325
 0.48999999999999999 1.2749999999999999
 0.5 1.2749999999999999
 0.51000000000000001 1.25
 0.52000000000000002 1.2749999999999999
 0.53000000000000003 1.2749999999999999
 0.54000000000000004 1.325
 0.55000000000000004 1.325
 0.56000000000000005 1.325
 0.56999999999999995 1.325
 0.57999999999999996 1.325
 0.58999999999999997 1.325
 0.59999999999999998 1.325
 0.60999999999999999 1.325
 0.62 1.325
 0.63 1.325
 0.64000000000000001 1.375
 0.65000000000000002 1.375
 0.66000000000000003 1.375
 0.67000000000000004 1.425
 0.68000000000000005 1.45
 0.68999999999999995 1.4750000000000001
 0.69999999999999996 1.4750000000000001
 0.70999999999999996 1.55
 0.71999999999999997 1.6000000000000001
 0.72999999999999998 1.6499999999999999
 0.73999999999999999 1.7
 0.75 1.7749999999999999
 0.76000000000000001 1.8500000000000001
 0.77000000000000002 1.8999999999999999
 0.78000000000000003 1.9750000000000001
 0.79000000000000004 1.9750000000000001
 0.80000000000000004 1.9750000000000001
 0.81000000000000005 1.8999999999999999
 0.81999999999999995 1.8
 0.82999999999999996 1.6499999999999999
 0.83999999999999997 1.5249999999999999
 0.84999999999999998 1.425
 0.85999999999999999 1.3500000000000001
 0.87 1.3
 0.88 1.2749999999999999
 0.89000000000000001 1.2749999999999999
 0.90000000000000002 1.25
 0.91000000000000003 1.2250000000000001
 0.92000000000000004 1.2250000000000001
 0.93000000000000005 1.2250000000000001
 0.93999999999999995 1.2250000000000001
 0.94999999999999996 1.25
 0.95999999999999996 1.2749999999999999
 0.96999999999999997 1.2749999999999999
 0.97999999999999998 1.2749999999999999
 0.98999999999999999 1.2749999999999999
 1 1.2250000000000001
 1.01 1.2250000000000001
 1.02 1.2250000000000001
 1.03 1.2250000000000001
 1.04 1.2250000000000001
 1.05 1.2250000000000001
 1.0600000000000001 1.2
 1.0700000000000001 1.2
 1.0800000000000001 1.2
 1.0900000000000001 1.175
 1.1000000000000001 1.175
 1.1100000000000001 1.175
 1.1200000000000001 1.175
 1.1299999999999999 1.175
 1.1399999999999999 1.175
 1.1499999999999999 1.175
 1.1599999999999999 1.175
 1.1699999999999999 1.175
 1.1799999999999999 1.175
 1.1899999999999999 1.175
 1.2 1.175
 1.21 1.175
 1.22 1.175
 1.23 1.175
 1.24 1.175
 1.25 1.175
 1.26 1.175
 1.27 1.175
 1.28 1.175
 1.29 1.175
 1.3 1.175
 1.3100000000000001 1.2250000000000001
 1.3200000000000001 1.2250000000000001
 1.3300000000000001 1.2749999999999999
 1.3400000000000001 1.2749999999999999
 1.3500000000000001 1.2749999999999999
 1.3600000000000001 1.2749999999999999
 1.3700000000000001 1.325
 1.3799999999999999 1.325
 1.3899999999999999 1.2749999999999999
 1.3999999999999999 1.2
 1.4099999999999999 1.175
 1.4199999999999999 1.125
 1.4299999999999999 1.1000000000000001
 1.4399999999999999 1.05
 1.45 1.25
 1.46 1.825
 1.47 2.7250000000000001
 1.48 3.2250000000000001
 1.49 2.5750000000000002
 1.5 2.0499999999999998
 1.51 1.25
 1.52 1.2
 1.53 1.175
 1.54 1.1499999999999999
 1.55 1.175
 1.5600000000000001 1.175
 1.5700000000000001 1.175
 1.5800000000000001 1.175
 1.5900000000000001 1.175
 1.6000000000000001 1.175
 1.6100000000000001 1.175
 1.6200000000000001 1.175
 1.6299999999999999 1.2
 1.6399999999999999 1.2250000000000001
 1.6499999999999999 1.2250000000000001
 1.6599999999999999 1.2250000000000001
 1.6699999999999999 1.25
 1.6799999999999999 1.2749999999999999
 1.6899999999999999 1.2749999999999999
 1.7 1.325
 1.71 1.325
 1.72 1.375
 1.73 1.375
 1.74 1.425
 1.75 1.4750000000000001
 1.76 1.5249999999999999
 1.77 1.575
 1.78 1.625
 1.79 1.7
 1.8 1.75
 1.8100000000000001 1.8
 1.8200000000000001 1.825
 1.8300000000000001 1.825
 1.8400000000000001 1.75
 1.8500000000000001 1.6499999999999999
 1.8600000000000001 1.5249999999999999
 1.8700000000000001 1.375
 1.8799999999999999 1.3
 1.8899999999999999 1.2749999999999999
 1.8999999999999999 1.2250000000000001
 1.9099999999999999 1.2250000000000001
 1.9199999999999999 1.2
 1.9299999999999999 1.175
 1.9399999999999999 1.175
 1.95 1.175
 1.96 1.175
 1.97 1.175
 1.98 1.1499999999999999
 1.99 1.125
 2 1.125
 2.0099999999999998 1.125
 2.02 1.125
 2.0299999999999998 1.125
 2.04 1.125
 2.0499999999999998 1.125
 2.0600000000000001 1.125
 2.0699999999999998 1.1000000000000001
 2.0800000000000001 1.1000000000000001
 2.0899999999999999 1.075
 2.1000000000000001 1.075
 2.1099999999999999 1.075
 2.1200000000000001 1.075
 2.1299999999999999 1.075
 2.1400000000000001 1.075
 2.1499999999999999 1.075
 2.1600000000000001 1.075
 2.1699999999999999 1.0249999999999999
 2.1800000000000002 1.0249999999999999
 2.1899999999999999 1.0249999999999999
 2.2000000000000002 1.0249999999999999
 2.21 1.0249999999999999
 2.2200000000000002 1.0249999999999999
 2.23 1.0249999999999999
 2.2400000000000002 1.0249999999999999
 2.25 1
 2.2599999999999998 1
 2.27 0.97499999999999998
 2.2799999999999998 0.97499999999999998
 2.29 0.97499999999999998
 2.2999999999999998 0.97499999999999998
 2.3100000000000001 0.97499999999999998
 2.3199999999999998 0.97499999999999998
 2.3300000000000001 0.97499999999999998
 2.3399999999999999 0.97499999999999998
 2.3500000000000001 0.97499999999999998
 2.3599999999999999 0.97499999999999998
 2.3700000000000001 1.0249999999999999
 2.3799999999999999 1.0249999999999999
 2.3900000000000001 1.0249999999999999
 2.3999999999999999 1.0249999999999999
 2.4100000000000001 1.0249999999999999
 2.4199999999999999 1.0249999999999999
 2.4300000000000002 1.075
 2.4399999999999999 1.075
 2.4500000000000002 1.0249999999999999
 2.46 0.97499999999999998
 2.4700000000000002 0.92500000000000004
 2.48 0.92500000000000004
 2.4900000000000002 0.92500000000000004
 2.5 0.875
 2.5099999999999998 0.90000000000000002
 2.52 1.4750000000000001
 2.5299999999999998 2.2000000000000002
 2.54 3.0249999999999999
 2.5499999999999998 2.3500000000000001
 2.5600000000000001 2.25
 2.5699999999999998 0.97499999999999998
 2.5800000000000001 0.92500000000000004
 2.5899999999999999 0.875
 2.6000000000000001 0.875
 2.6099999999999999 0.875
 2.6200000000000001 0.875
 2.6299999999999999 0.84999999999999998
 2.6400000000000001 0.84999999999999998
 2.6499999999999999 0.84999999999999998
 2.6600000000000001 0.84999999999999998
 2.6699999999999999 0.84999999999999998
 2.6800000000000002 0.875
 2.6899999999999999 0.875
 2.7000000000000002 0.875
 2.71 0.875
 2.7200000000000002 0.875
 2.73 0.90000000000000002
 2.7400000000000002 0.92500000000000004
 2.75 0.92500000000000004
 2.7599999999999998 0.94999999999999996
 2.77 0.97499999999999998
 2.7799999999999998 0.97499999999999998
 2.79 1
 2.7999999999999998 1.0249999999999999
 2.8100000000000001 1.0249999999999999
 2.8199999999999998 1.075
 2.8300000000000001 1.1000000000000001
 2.8399999999999999 1.125
 2.8500000000000001 1.175
 2.8599999999999999 1.2250000000000001
 2.8700000000000001 1.3
 2.8799999999999999 1.3500000000000001
 2.8900000000000001 1.3999999999999999
 2.8999999999999999 1.4750000000000001
 2.9100000000000001 1.5249999999999999
 2.9199999999999999 1.5249999999999999
 2.9300000000000002 1.5
 2.9399999999999999 1.425
 2.9500000000000002 1.3
 2.96 1.175
 2.9700000000000002 1.1000000000000001
 2.98 1.0249999999999999
 2.9900000000000002 0.97499999999999998
 3 0.92500000000000004
 3.0099999999999998 0.92500000000000004
 3.02 0.90000000000000002
 3.0299999999999998 0.875
 3.04 0.875
 3.0499999999999998 0.875
 3.0600000000000001 0.875
 3.0699999999999998 0.84999999999999998
 3.0800000000000001 0.84999999999999998
 3.0899999999999999 0.82499999999999996
 3.1000000000000001 0.82499999999999996
 3.1099999999999999 0.82499999999999996
 3.1200000000000001 0.82499999999999996
 3.1299999999999999 0.82499999999999996
 3.1400000000000001 0.82499999999999996
 3.1499999999999999 0.82499999999999996
 3.1600000000000001 0.77500000000000002
 3.1699999999999999 0.77500000000000002
 3.1800000000000002 0.77500000000000002
 3.1899999999999999 0.77500000000000002
 3.2000000000000002 0.77500000000000002
 3.21 0.77500000000000002
 3.2200000000000002 0.77500000000000002
 3.23 0.77500000000000002
 3.2400000000000002 0.75
 3.25 0.72499999999999998
 3.2599999999999998 0.72499999999999998
 3.27 0.72499999999999998
 3.2799999999999998 0.72499999999999998
 3.29 0.72499999999999998
 3.2999999999999998 0.72499999999999998
 3.3100000000000001 0.72499999999999998
 3.3199999999999998 0.69999999999999996
 3.3300000000000001 0.69999999999999996
 3.3399999999999999 0.67500000000000004
 3.3500000000000001 0.67500000000000004
 3.3599999999999999 0.67500000000000004
 3.3700000000000001 0.67500000000000004
 3.3799999999999999 0.67500000000000004
 3.3900000000000001 0.67500000000000004
 3.3999999999999999 0.67500000000000004
 3.4100000000000001 0.65000000000000002
 3.4199999999999999 0.65000000000000002
 3.4300000000000002 0.65000000000000002
 3.4399999999999999 0.65000000000000002
 3.4500000000000002 0.67500000000000004
 3.46 0.67500000000000004
 3.4700000000000002 0.67500000000000004
 3.48 0.72499999999999998
 3.4900000000000002 0.72499999999999998
 3.5 0.72499999999999998
 3.5099999999999998 0.72499999999999998
 3.52 0.72499999999999998
 3.5299999999999998 0.72499999999999998
 3.54 0.67500000000000004
 3.5499999999999998 0.59999999999999998
 3.5600000000000001 0.57499999999999996
 3.5699999999999998 0.57499999999999996
 3.5800000000000001 0.57499999999999996
 3.5899999999999999 0.52500000000000002
 3.6000000000000001 0.69999999999999996
 3.6099999999999999 1.55
 3.6200000000000001 2.5249999999999999
 3.6299999999999999 3.3999999999999999
 3.6400000000000001 2.3250000000000002
 3.6499999999999999 2.0499999999999998
 3.6600000000000001 0.67500000000000004
 3.6699999999999999 0.67500000000000004
 3.6800000000000002 0.65000000000000002
 3.6899999999999999 0.57499999999999996
 3.7000000000000002 0.625
 3.71 0.625
 3.7200000000000002 0.67500000000000004
 3.73 0.67500000000000004
 3.7400000000000002 0.67500000000000004
 3.75 0.67500000000000004
 3.7599999999999998 0.72499999999999998
 3.77 0.72499999999999998
 3.7799999999999998 0.72499999999999998
 3.79 0.72499999999999998
 3.7999999999999998 0.72499999999999998
 3.8100000000000001 0.72499999999999998
 3.8199999999999998 0.72499999999999998
 3.8300000000000001 0.77500000000000002
 3.8399999999999999 0.77500000000000002
 3.8500000000000001 0.80000000000000004
 3.8599999999999999 0.82499999999999996
 3.8700000000000001 0.875
 3.8799999999999999 0.92500000000000004
 3.8900000000000001 0.97499999999999998
 3.8999999999999999 1.0249999999999999
 3.9100000000000001 1.1000000000000001
 3.9199999999999999 1.1499999999999999
 3.9300000000000002 1.25
 3.9399999999999999 1.325
 3.9500000000000002 1.3999999999999999
 3.96 1.45
 3.9700000000000002 1.55
 3.98 1.575
 3.9900000000000002 1.5249999999999999
 4 1.425
 4.0099999999999998 1.2749999999999999
 4.0199999999999996 1.125
 4.0300000000000002 0.94999999999999996
 4.04 0.80000000000000004
 4.0499999999999998 0.69999999999999996
 4.0599999999999996 0.67500000000000004
 4.0700000000000003 0.65000000000000002
 4.0800000000000001 0.625
 4.0899999999999999 0.625
 4.0999999999999996 0.625
 4.1100000000000003 0.625
 4.1200000000000001 0.625
 4.1299999999999999 0.625
 4.1399999999999997 0.625
 4.1500000000000004 0.625
 4.1600000000000001 0.625
 4.1699999999999999 0.625
 4.1799999999999997 0.625
 4.1900000000000004 0.625
 4.2000000000000002 0.625
 4.21 0.625
 4.2199999999999998 0.59999999999999998
 4.2300000000000004 0.59999999999999998
 4.2400000000000002 0.57499999999999996
 4.25 0.57499999999999996
 4.2599999999999998 0.57499999999999996
 4.2699999999999996 0.57499999999999996
 4.2800000000000002 0.57499999999999996
 4.29 0.57499999999999996
 4.2999999999999998 0.52500000000000002
 4.3099999999999996 0.52500000000000002
 4.3200000000000003 0.52500000000000002
 4.3300000000000001 0.57499999999999996
 4.3399999999999999 0.57499999999999996
 4.3499999999999996 0.57499999999999996
 4.3600000000000003 0.57499999999999996
 4.3700000000000001 0.57499999999999996
 4.3799999999999999 0.55000000000000004
 4.3899999999999997 0.52500000000000002
 4.4000000000000004 0.52500000000000002
 4.4100000000000001 0.52500000000000002
 4.4199999999999999 0.52500000000000002
 4.4299999999999997 0.52500000000000002
 4.4400000000000004 0.52500000000000002
 4.4500000000000002 0.52500000000000002
 4.46 0.52500000000000002
 4.4699999999999998 0.52500000000000002
 4.4800000000000004 0.57499999999999996
 4.4900000000000002 0.57499999999999996
 4.5 0.57499999999999996
 4.5099999999999998 0.57499999999999996
 4.5199999999999996 0.625
 4.5300000000000002 0.625
 4.54 0.625
 4.5499999999999998 0.625
 4.5599999999999996 0.625
 4.5700000000000003 0.625
 4.5800000000000001 0.59999999999999998
 4.5899999999999999 0.55000000000000004
 4.5999999999999996 0.47499999999999998
 4.6100000000000003 0.47499999999999998
 4.6200000000000001 0.42499999999999999
 4.6299999999999999 0.42499999999999999
 4.6399999999999997 1.375
 4.6500000000000004 2
 4.6600000000000001 3.2999999999999998
 4.6699999999999999 2.375
 4.6799999999999997 2
 4.6900000000000004 0.65000000000000002
 4.7000000000000002 0.59999999999999998
 4.71 0.57499999999999996
 4.7199999999999998 0.52500000000000002
 4.7300000000000004 0.52500000000000002
 4.7400000000000002 0.52500000000000002
 4.75 0.55000000000000004
 4.7599999999999998 0.57499999999999996
 4.7699999999999996 0.57499999999999996
 4.7800000000000002 0.57499999999999996
 4.79 0.57499999999999996
 4.7999999999999998 0.57499999999999996
 4.8099999999999996 0.59999999999999998
 4.8200000000000003 0.57499999999999996
 4.8300000000000001 0.625
 4.8399999999999999 0.625
 4.8499999999999996 0.67500000000000004
 4.8600000000000003 0.67500000000000004
 4.8700000000000001 0.69999999999999996
 4.8799999999999999 0.72499999999999998
 4.8899999999999997 0.75
 4.9000000000000004 0.77500000000000002
 4.9100000000000001 0.82499999999999996
 4.9199999999999999 0.90000000000000002
 4.9299999999999997 0.94999999999999996
 4.9400000000000004 1
 4.9500000000000002 1.05
 4.96 1.1499999999999999
 4.9699999999999998 1.2
 4.9800000000000004 1.25
 4.9900000000000002 1.325
 5 1.375
 5.0099999999999998 1.375
 5.0199999999999996 1.3500000000000001
 5.0300000000000002 1.25
 5.04 1.1000000000000001
 5.0499999999999998 0.94999999999999996
 5.0599999999999996 0.82499999999999996
 5.0700000000000003 0.75
 5.0800000000000001 0.67500000000000004
 5.0899999999999999 0.625
 5.0999999999999996 0.625
 5.1100000000000003 0.57499999999999996
 5.1200000000000001 0.57499999999999996
 5.1299999999999999 0.57499999999999996
 5.1399999999999997 0.52500000000000002
 5.1500000000000004 0.52500000000000002
 5.1600000000000001 0.52500000000000002
 5.1699999999999999 0.52500000000000002
 5.1799999999999997 0.52500000000000002
 5.1900000000000004 0.52500000000000002
 5.2000000000000002 0.52500000000000002
 5.21 0.52500000000000002
 5.2199999999999998 0.52500000000000002
 5.2300000000000004 0.52500000000000002
 5.2400000000000002 0.52500000000000002
 5.25 0.52500000000000002
 5.2599999999999998 0.47499999999999998
 5.2699999999999996 0.47499999999999998
 5.2800000000000002 0.45000000000000001
 5.29 0.42499999999999999
 5.2999999999999998 0.42499999999999999
 5.3099999999999996 0.42499999999999999
 5.3200000000000003 0.42499999999999999
 5.3300000000000001 0.40000000000000002
 5.3399999999999999 0.40000000000000002
 5.3499999999999996 0.40000000000000002
 5.3600000000000003 0.40000000000000002
 5.3700000000000001 0.40000000000000002
 5.3799999999999999 0.375
 5.3899999999999997 0.375
 5.4000000000000004 0.375
 5.4100000000000001 0.375
 5.4199999999999999 0.375
 5.4299999999999997 0.375
 5.4400000000000004 0.375
 5.4500000000000002 0.375
 5.46 0.375
 5.4699999999999998 0.34999999999999998
 5.4800000000000004 0.34999999999999998
 5.4900000000000002 0.32500000000000001
 5.5 0.32500000000000001
 5.5099999999999998 0.32500000000000001
 5.5199999999999996 0.32500000000000001
 5.5300000000000002 0.27500000000000002
 5.54 0.27500000000000002
 5.5499999999999998 0.32500000000000001
 5.5599999999999996 0.34999999999999998
 5.5700000000000003 0.375
 5.5800000000000001 0.42499999999999999
 5.5899999999999999 0.42499999999999999
 5.5999999999999996 0.42499999999999999
 5.6100000000000003 0.375
 5.6200000000000001 0.375
 5.6299999999999999 0.375
 5.6399999999999997 0.29999999999999999
 5.6500000000000004 0.25
 5.6600000000000001 0.22500000000000001
 5.6699999999999999 0.27500000000000002
 5.6799999999999997 0.27500000000000002
 5.6900000000000004 0.25
 5.7000000000000002 0.77500000000000002
 5.71 1.625
 5.7199999999999998 2.5499999999999998
 5.7300000000000004 2.6749999999999998
 5.7400000000000002 1.8500000000000001
 5.75 0.69999999999999996
 5.7599999999999998 0.40000000000000002
 5.7699999999999996 0.32500000000000001
 5.7800000000000002 0.25
 5.79 0.22500000000000001
 5.7999999999999998 0.27500000000000002
 5.8099999999999996 0.27500000000000002
 5.8200000000000003 0.27500000000000002
 5.8300000000000001 0.27500000000000002
 5.8399999999999999 0.27500000000000002


